SpectraSuite Data File
++++++++++++++++++++++++++++++++++++
Date: Fri Jul 12 13:51:54 ART 2024
User: Javier
Dark Spectrum Present: Yes
Reference Spectrum Present: No
Number of Sampled Component Spectra: 1
Spectrometers: ADUD7991
Integration Time (usec): 30000 (ADUD7991)
Spectra Averaged: 1 (ADUD7991)
Boxcar Smoothing: 0 (ADUD7991)
Correct for Electrical Dark: No (ADUD7991)
Strobe/Lamp Enabled: No (ADUD7991)
Correct for Detector Non-linearity: No (ADUD7991)
Correct for Stray Light: No (ADUD7991)
Number of Pixels in Processed Spectrum: 2048
>>>>>Begin Processed Spectral Data<<<<<
338.97	0.00
339.33	-9.00
339.70	6.00
340.06	-1.00
340.42	-5.00
340.79	-4.00
341.15	7.00
341.52	1.00
341.88	-1.00
342.24	-2.00
342.61	-2.00
342.97	0.00
343.33	4.00
343.70	5.00
344.06	-4.00
344.43	-4.00
344.79	4.00
345.15	-1.00
345.52	-6.00
345.88	-3.00
346.24	-3.00
346.61	-2.00
346.97	-1.00
347.33	8.00
347.70	0.00
348.06	4.00
348.42	-3.00
348.79	0.00
349.15	5.00
349.51	0.00
349.88	-2.00
350.24	-6.00
350.60	1.00
350.97	0.00
351.33	4.00
351.69	2.00
352.05	-9.00
352.42	0.00
352.78	3.00
353.14	-1.00
353.51	2.00
353.87	1.00
354.23	1.00
354.60	1.00
354.96	1.00
355.32	-1.00
355.68	4.00
356.05	9.00
356.41	2.00
356.77	8.00
357.13	-1.00
357.50	1.00
357.86	1.00
358.22	-4.00
358.58	0.00
358.95	-2.00
359.31	-1.00
359.67	0.00
360.03	1.00
360.40	0.00
360.76	-9.00
361.12	1.00
361.48	4.00
361.85	-3.00
362.21	-3.00
362.57	-2.00
362.93	0.00
363.29	1.00
363.66	3.00
364.02	-2.00
364.38	-1.00
364.74	-7.00
365.10	2.00
365.47	-2.00
365.83	9.00
366.19	6.00
366.55	7.00
366.91	6.00
367.28	-6.00
367.64	3.00
368.00	1.00
368.36	7.00
368.72	-3.00
369.08	5.00
369.45	-5.00
369.81	-6.00
370.17	-3.00
370.53	-1.00
370.89	8.00
371.25	-4.00
371.62	-2.00
371.98	-2.00
372.34	1.00
372.70	3.00
373.06	4.00
373.42	3.00
373.78	0.00
374.14	-3.00
374.51	1.00
374.87	-2.00
375.23	2.00
375.59	4.00
375.95	-1.00
376.31	-15.00
376.67	0.00
377.03	2.00
377.39	-8.00
377.76	8.00
378.12	-1.00
378.48	-3.00
378.84	-5.00
379.20	-2.00
379.56	8.00
379.92	4.00
380.28	-2.00
380.64	2.00
381.00	-8.00
381.36	-2.00
381.72	10.00
382.08	-3.00
382.45	6.00
382.81	-2.00
383.17	4.00
383.53	6.00
383.89	1.00
384.25	1.00
384.61	3.00
384.97	1.00
385.33	2.00
385.69	4.00
386.05	-1.00
386.41	-6.00
386.77	3.00
387.13	-2.00
387.49	2.00
387.85	3.00
388.21	-2.00
388.57	-1.00
388.93	-3.00
389.29	3.00
389.65	4.00
390.01	1.00
390.37	6.00
390.73	2.00
391.09	-3.00
391.45	1.00
391.81	-3.00
392.17	3.00
392.53	7.00
392.89	1.00
393.25	0.00
393.61	6.00
393.97	2.00
394.33	-3.00
394.69	-1.00
395.05	7.00
395.41	2.00
395.77	10.00
396.12	6.00
396.48	3.00
396.84	6.00
397.20	1.00
397.56	-1.00
397.92	5.00
398.28	-1.00
398.64	4.00
399.00	6.00
399.36	4.00
399.72	9.00
400.08	1.00
400.44	6.00
400.79	10.00
401.15	1.00
401.51	4.00
401.87	2.00
402.23	0.00
402.59	6.00
402.95	11.00
403.31	9.00
403.67	8.00
404.02	11.00
404.38	0.00
404.74	5.00
405.10	9.00
405.46	7.00
405.82	12.00
406.18	5.00
406.53	7.00
406.89	9.00
407.25	13.00
407.61	8.00
407.97	9.00
408.33	19.00
408.69	13.00
409.04	11.00
409.40	19.00
409.76	17.00
410.12	20.00
410.48	10.00
410.83	11.00
411.19	24.00
411.55	12.00
411.91	10.00
412.27	13.00
412.63	21.00
412.98	19.00
413.34	20.00
413.70	18.00
414.06	24.00
414.41	21.00
414.77	22.00
415.13	14.00
415.49	23.00
415.85	15.00
416.20	14.00
416.56	20.00
416.92	24.00
417.28	19.00
417.63	17.00
417.99	14.00
418.35	21.00
418.71	22.00
419.06	23.00
419.42	17.00
419.78	22.00
420.14	32.00
420.49	27.00
420.85	31.00
421.21	25.00
421.57	33.00
421.92	23.00
422.28	28.00
422.64	22.00
422.99	23.00
423.35	29.00
423.71	27.00
424.06	31.00
424.42	30.00
424.78	27.00
425.14	33.00
425.49	34.00
425.85	36.00
426.21	30.00
426.56	36.00
426.92	22.00
427.28	32.00
427.63	35.00
427.99	35.00
428.35	30.00
428.70	33.00
429.06	32.00
429.42	32.00
429.77	38.00
430.13	28.00
430.49	35.00
430.84	27.00
431.20	34.00
431.55	33.00
431.91	28.00
432.27	37.00
432.62	30.00
432.98	33.00
433.34	34.00
433.69	42.00
434.05	37.00
434.40	38.00
434.76	40.00
435.12	40.00
435.47	40.00
435.83	39.00
436.18	41.00
436.54	36.00
436.90	33.00
437.25	31.00
437.61	41.00
437.96	43.00
438.32	36.00
438.67	43.00
439.03	43.00
439.39	45.00
439.74	43.00
440.10	47.00
440.45	38.00
440.81	36.00
441.16	39.00
441.52	41.00
441.87	47.00
442.23	45.00
442.59	41.00
442.94	46.00
443.30	50.00
443.65	42.00
444.01	45.00
444.36	41.00
444.72	47.00
445.07	56.00
445.43	41.00
445.78	48.00
446.14	48.00
446.49	44.00
446.85	46.00
447.20	51.00
447.56	53.00
447.91	46.00
448.27	51.00
448.62	50.00
448.98	56.00
449.33	47.00
449.69	54.00
450.04	49.00
450.39	44.00
450.75	53.00
451.10	58.00
451.46	46.00
451.81	47.00
452.17	52.00
452.52	57.00
452.88	54.00
453.23	55.00
453.58	59.00
453.94	48.00
454.29	51.00
454.65	54.00
455.00	52.00
455.36	63.00
455.71	53.00
456.06	53.00
456.42	58.00
456.77	53.00
457.13	58.00
457.48	49.00
457.83	55.00
458.19	53.00
458.54	55.00
458.90	59.00
459.25	58.00
459.60	56.00
459.96	59.00
460.31	47.00
460.66	58.00
461.02	56.00
461.37	60.00
461.73	50.00
462.08	60.00
462.43	57.00
462.79	59.00
463.14	54.00
463.49	55.00
463.85	54.00
464.20	63.00
464.55	62.00
464.91	56.00
465.26	63.00
465.61	61.00
465.97	54.00
466.32	57.00
466.67	55.00
467.03	59.00
467.38	63.00
467.73	55.00
468.08	52.00
468.44	64.00
468.79	63.00
469.14	64.00
469.50	61.00
469.85	64.00
470.20	64.00
470.55	65.00
470.91	59.00
471.26	64.00
471.61	66.00
471.97	68.00
472.32	59.00
472.67	66.00
473.02	63.00
473.38	73.00
473.73	75.00
474.08	69.00
474.43	68.00
474.78	66.00
475.14	66.00
475.49	76.00
475.84	68.00
476.19	78.00
476.55	76.00
476.90	75.00
477.25	76.00
477.60	77.00
477.95	72.00
478.31	78.00
478.66	85.00
479.01	72.00
479.36	85.00
479.71	80.00
480.07	81.00
480.42	87.00
480.77	79.00
481.12	85.00
481.47	85.00
481.82	80.00
482.18	90.00
482.53	76.00
482.88	81.00
483.23	85.00
483.58	76.00
483.93	87.00
484.29	83.00
484.64	85.00
484.99	90.00
485.34	94.00
485.69	96.00
486.04	89.00
486.39	88.00
486.74	88.00
487.10	94.00
487.45	99.00
487.80	95.00
488.15	102.00
488.50	95.00
488.85	98.00
489.20	102.00
489.55	102.00
489.90	104.00
490.26	106.00
490.61	99.00
490.96	104.00
491.31	99.00
491.66	92.00
492.01	95.00
492.36	97.00
492.71	112.00
493.06	107.00
493.41	106.00
493.76	104.00
494.11	114.00
494.46	109.00
494.81	97.00
495.16	100.00
495.51	119.00
495.86	109.00
496.21	109.00
496.56	110.00
496.91	110.00
497.27	109.00
497.62	113.00
497.97	118.00
498.32	125.00
498.67	121.00
499.02	118.00
499.37	118.00
499.72	117.00
500.07	119.00
500.42	128.00
500.77	128.00
501.11	127.00
501.46	117.00
501.81	125.00
502.16	127.00
502.51	131.00
502.86	128.00
503.21	125.00
503.56	124.00
503.91	136.00
504.26	130.00
504.61	134.00
504.96	137.00
505.31	135.00
505.66	138.00
506.01	138.00
506.36	133.00
506.71	135.00
507.06	141.00
507.41	140.00
507.75	146.00
508.10	132.00
508.45	142.00
508.80	134.00
509.15	139.00
509.50	132.00
509.85	142.00
510.20	143.00
510.55	139.00
510.90	143.00
511.24	140.00
511.59	154.00
511.94	146.00
512.29	148.00
512.64	143.00
512.99	145.00
513.34	143.00
513.68	144.00
514.03	155.00
514.38	159.00
514.73	157.00
515.08	161.00
515.43	164.00
515.77	153.00
516.12	169.00
516.47	160.00
516.82	161.00
517.17	164.00
517.52	167.00
517.86	157.00
518.21	156.00
518.56	164.00
518.91	164.00
519.26	166.00
519.60	170.00
519.95	168.00
520.30	172.00
520.65	176.00
521.00	170.00
521.34	185.00
521.69	173.00
522.04	181.00
522.39	184.00
522.73	188.00
523.08	179.00
523.43	191.00
523.78	192.00
524.12	178.00
524.47	177.00
524.82	173.00
525.17	182.00
525.51	181.00
525.86	193.00
526.21	190.00
526.56	192.00
526.90	190.00
527.25	189.00
527.60	204.00
527.94	200.00
528.29	190.00
528.64	194.00
528.99	194.00
529.33	211.00
529.68	189.00
530.03	205.00
530.37	200.00
530.72	207.00
531.07	200.00
531.41	208.00
531.76	198.00
532.11	209.00
532.45	203.00
532.80	205.00
533.15	212.00
533.49	207.00
533.84	219.00
534.19	214.00
534.53	219.00
534.88	218.00
535.23	222.00
535.57	219.00
535.92	219.00
536.26	210.00
536.61	216.00
536.96	216.00
537.30	217.00
537.65	217.00
537.99	216.00
538.34	219.00
538.69	224.00
539.03	217.00
539.38	219.00
539.72	229.00
540.07	235.00
540.42	234.00
540.76	220.00
541.11	235.00
541.45	239.00
541.80	237.00
542.14	236.00
542.49	243.00
542.84	236.00
543.18	241.00
543.53	251.00
543.87	243.00
544.22	241.00
544.56	238.00
544.91	240.00
545.25	240.00
545.60	243.00
545.94	250.00
546.29	236.00
546.63	250.00
546.98	257.00
547.32	257.00
547.67	250.00
548.01	260.00
548.36	259.00
548.70	250.00
549.05	263.00
549.39	263.00
549.74	265.00
550.08	265.00
550.43	262.00
550.77	254.00
551.12	266.00
551.46	267.00
551.81	257.00
552.15	268.00
552.50	264.00
552.84	269.00
553.18	274.00
553.53	268.00
553.87	275.00
554.22	265.00
554.56	268.00
554.91	274.00
555.25	271.00
555.59	262.00
555.94	268.00
556.28	281.00
556.63	278.00
556.97	281.00
557.32	281.00
557.66	283.00
558.00	278.00
558.35	280.00
558.69	290.00
559.03	284.00
559.38	283.00
559.72	288.00
560.07	299.00
560.41	284.00
560.75	289.00
561.10	276.00
561.44	291.00
561.78	294.00
562.13	290.00
562.47	294.00
562.81	288.00
563.16	300.00
563.50	295.00
563.84	293.00
564.19	297.00
564.53	293.00
564.87	305.00
565.22	300.00
565.56	299.00
565.90	301.00
566.25	292.00
566.59	319.00
566.93	302.00
567.28	301.00
567.62	310.00
567.96	319.00
568.30	316.00
568.65	315.00
568.99	306.00
569.33	319.00
569.68	309.00
570.02	303.00
570.36	315.00
570.70	317.00
571.05	314.00
571.39	335.00
571.73	312.00
572.07	304.00
572.42	311.00
572.76	315.00
573.10	309.00
573.44	307.00
573.78	308.00
574.13	315.00
574.47	319.00
574.81	308.00
575.15	326.00
575.49	315.00
575.84	332.00
576.18	325.00
576.52	329.00
576.86	315.00
577.20	319.00
577.55	310.00
577.89	314.00
578.23	316.00
578.57	313.00
578.91	315.00
579.25	314.00
579.60	307.00
579.94	302.00
580.28	308.00
580.62	314.00
580.96	312.00
581.30	324.00
581.65	308.00
581.99	322.00
582.33	315.00
582.67	322.00
583.01	327.00
583.35	329.00
583.69	326.00
584.03	316.00
584.37	342.00
584.72	326.00
585.06	333.00
585.40	335.00
585.74	333.00
586.08	324.00
586.42	334.00
586.76	338.00
587.10	346.00
587.44	345.00
587.78	330.00
588.12	337.00
588.46	350.00
588.80	336.00
589.15	335.00
589.49	344.00
589.83	314.00
590.17	327.00
590.51	336.00
590.85	338.00
591.19	346.00
591.53	344.00
591.87	329.00
592.21	337.00
592.55	334.00
592.89	334.00
593.23	336.00
593.57	331.00
593.91	334.00
594.25	326.00
594.59	336.00
594.93	337.00
595.27	336.00
595.61	333.00
595.95	341.00
596.29	340.00
596.63	341.00
596.97	326.00
597.31	340.00
597.65	347.00
597.99	352.00
598.32	339.00
598.66	340.00
599.00	342.00
599.34	335.00
599.68	334.00
600.02	336.00
600.36	352.00
600.70	338.00
601.04	335.00
601.38	346.00
601.72	343.00
602.06	337.00
602.40	335.00
602.73	332.00
603.07	344.00
603.41	356.00
603.75	348.00
604.09	344.00
604.43	340.00
604.77	342.00
605.11	343.00
605.45	342.00
605.78	343.00
606.12	352.00
606.46	349.00
606.80	348.00
607.14	341.00
607.48	342.00
607.81	351.00
608.15	351.00
608.49	345.00
608.83	345.00
609.17	355.00
609.51	350.00
609.84	346.00
610.18	339.00
610.52	350.00
610.86	345.00
611.20	350.00
611.53	343.00
611.87	341.00
612.21	339.00
612.55	346.00
612.89	345.00
613.22	337.00
613.56	340.00
613.90	337.00
614.24	344.00
614.57	351.00
614.91	347.00
615.25	347.00
615.59	343.00
615.92	341.00
616.26	346.00
616.60	358.00
616.94	347.00
617.27	346.00
617.61	355.00
617.95	351.00
618.29	342.00
618.62	343.00
618.96	337.00
619.30	338.00
619.63	348.00
619.97	342.00
620.31	346.00
620.64	345.00
620.98	347.00
621.32	343.00
621.66	339.00
621.99	345.00
622.33	340.00
622.67	360.00
623.00	347.00
623.34	342.00
623.68	338.00
624.01	343.00
624.35	348.00
624.68	345.00
625.02	351.00
625.36	337.00
625.69	343.00
626.03	336.00
626.37	341.00
626.70	333.00
627.04	328.00
627.37	332.00
627.71	330.00
628.05	347.00
628.38	345.00
628.72	340.00
629.05	334.00
629.39	331.00
629.73	338.00
630.06	352.00
630.40	340.00
630.73	340.00
631.07	332.00
631.41	328.00
631.74	334.00
632.08	341.00
632.41	333.00
632.75	352.00
633.08	334.00
633.42	339.00
633.75	333.00
634.09	317.00
634.42	332.00
634.76	340.00
635.09	335.00
635.43	314.00
635.76	342.00
636.10	328.00
636.43	333.00
636.77	331.00
637.10	327.00
637.44	334.00
637.77	325.00
638.11	321.00
638.44	338.00
638.78	326.00
639.11	311.00
639.45	317.00
639.78	338.00
640.12	326.00
640.45	319.00
640.79	323.00
641.12	316.00
641.46	310.00
641.79	313.00
642.12	310.00
642.46	322.00
642.79	318.00
643.13	317.00
643.46	321.00
643.80	319.00
644.13	315.00
644.46	311.00
644.80	311.00
645.13	322.00
645.47	313.00
645.80	312.00
646.13	313.00
646.47	316.00
646.80	307.00
647.13	301.00
647.47	308.00
647.80	304.00
648.14	311.00
648.47	315.00
648.80	304.00
649.14	314.00
649.47	301.00
649.80	306.00
650.14	313.00
650.47	302.00
650.80	304.00
651.14	306.00
651.47	308.00
651.80	298.00
652.14	308.00
652.47	292.00
652.80	295.00
653.14	304.00
653.47	293.00
653.80	294.00
654.13	301.00
654.47	294.00
654.80	290.00
655.13	296.00
655.47	281.00
655.80	294.00
656.13	281.00
656.46	295.00
656.80	297.00
657.13	284.00
657.46	296.00
657.79	289.00
658.13	290.00
658.46	288.00
658.79	281.00
659.12	281.00
659.45	287.00
659.79	285.00
660.12	279.00
660.45	272.00
660.78	276.00
661.12	282.00
661.45	278.00
661.78	274.00
662.11	275.00
662.44	292.00
662.77	298.00
663.11	273.00
663.44	271.00
663.77	259.00
664.10	263.00
664.43	268.00
664.77	270.00
665.10	270.00
665.43	262.00
665.76	273.00
666.09	257.00
666.42	264.00
666.75	265.00
667.08	278.00
667.42	265.00
667.75	268.00
668.08	279.00
668.41	271.00
668.74	276.00
669.07	256.00
669.40	250.00
669.73	256.00
670.06	268.00
670.40	254.00
670.73	256.00
671.06	259.00
671.39	261.00
671.72	259.00
672.05	251.00
672.38	255.00
672.71	257.00
673.04	251.00
673.37	257.00
673.70	248.00
674.03	253.00
674.36	261.00
674.69	259.00
675.02	253.00
675.35	241.00
675.68	247.00
676.01	264.00
676.34	256.00
676.67	249.00
677.00	260.00
677.33	254.00
677.66	250.00
677.99	247.00
678.32	234.00
678.65	250.00
678.98	231.00
679.31	235.00
679.64	238.00
679.97	250.00
680.30	252.00
680.63	249.00
680.96	248.00
681.29	245.00
681.62	244.00
681.95	241.00
682.28	233.00
682.61	242.00
682.94	241.00
683.27	236.00
683.60	228.00
683.93	230.00
684.25	224.00
684.58	223.00
684.91	230.00
685.24	230.00
685.57	226.00
685.90	232.00
686.23	230.00
686.56	230.00
686.89	222.00
687.21	225.00
687.54	223.00
687.87	238.00
688.20	227.00
688.53	219.00
688.86	223.00
689.19	223.00
689.51	214.00
689.84	226.00
690.17	228.00
690.50	218.00
690.83	217.00
691.16	215.00
691.48	220.00
691.81	218.00
692.14	205.00
692.47	213.00
692.80	216.00
693.12	214.00
693.45	213.00
693.78	214.00
694.11	220.00
694.44	202.00
694.76	224.00
695.09	209.00
695.42	198.00
695.75	201.00
696.07	212.00
696.40	203.00
696.73	211.00
697.06	203.00
697.38	204.00
697.71	213.00
698.04	210.00
698.37	200.00
698.69	203.00
699.02	202.00
699.35	201.00
699.67	203.00
700.00	204.00
700.33	200.00
700.66	202.00
700.98	196.00
701.31	194.00
701.64	191.00
701.96	197.00
702.29	188.00
702.62	203.00
702.94	199.00
703.27	191.00
703.60	195.00
703.92	190.00
704.25	174.00
704.58	187.00
704.90	203.00
705.23	185.00
705.56	187.00
705.88	179.00
706.21	187.00
706.53	181.00
706.86	171.00
707.19	177.00
707.51	181.00
707.84	180.00
708.16	175.00
708.49	177.00
708.82	187.00
709.14	175.00
709.47	181.00
709.79	186.00
710.12	173.00
710.45	175.00
710.77	179.00
711.10	175.00
711.42	178.00
711.75	171.00
712.07	173.00
712.40	169.00
712.72	174.00
713.05	168.00
713.37	171.00
713.70	161.00
714.03	169.00
714.35	171.00
714.68	165.00
715.00	161.00
715.33	169.00
715.65	149.00
715.98	157.00
716.30	153.00
716.63	160.00
716.95	154.00
717.28	164.00
717.60	154.00
717.92	154.00
718.25	144.00
718.57	156.00
718.90	152.00
719.22	147.00
719.55	141.00
719.87	144.00
720.20	156.00
720.52	141.00
720.84	144.00
721.17	139.00
721.49	148.00
721.82	145.00
722.14	140.00
722.47	135.00
722.79	139.00
723.11	137.00
723.44	139.00
723.76	134.00
724.09	139.00
724.41	139.00
724.73	141.00
725.06	127.00
725.38	132.00
725.70	135.00
726.03	138.00
726.35	142.00
726.67	137.00
727.00	143.00
727.32	140.00
727.65	128.00
727.97	130.00
728.29	125.00
728.61	126.00
728.94	127.00
729.26	130.00
729.58	133.00
729.91	127.00
730.23	118.00
730.55	126.00
730.88	129.00
731.20	120.00
731.52	122.00
731.84	125.00
732.17	128.00
732.49	121.00
732.81	129.00
733.14	126.00
733.46	123.00
733.78	126.00
734.10	130.00
734.43	130.00
734.75	130.00
735.07	122.00
735.39	119.00
735.72	126.00
736.04	112.00
736.36	112.00
736.68	118.00
737.00	123.00
737.33	131.00
737.65	123.00
737.97	119.00
738.29	125.00
738.61	120.00
738.94	123.00
739.26	115.00
739.58	124.00
739.90	121.00
740.22	115.00
740.54	116.00
740.87	112.00
741.19	111.00
741.51	119.00
741.83	119.00
742.15	113.00
742.47	114.00
742.79	124.00
743.12	123.00
743.44	111.00
743.76	121.00
744.08	112.00
744.40	117.00
744.72	113.00
745.04	109.00
745.36	114.00
745.68	116.00
746.00	104.00
746.33	120.00
746.65	116.00
746.97	116.00
747.29	116.00
747.61	122.00
747.93	119.00
748.25	112.00
748.57	108.00
748.89	106.00
749.21	116.00
749.53	118.00
749.85	112.00
750.17	117.00
750.49	103.00
750.81	114.00
751.13	119.00
751.45	112.00
751.77	116.00
752.09	112.00
752.41	105.00
752.73	109.00
753.05	111.00
753.37	122.00
753.69	106.00
754.01	115.00
754.33	118.00
754.65	111.00
754.97	116.00
755.29	117.00
755.61	108.00
755.93	112.00
756.25	110.00
756.57	110.00
756.89	122.00
757.21	119.00
757.53	113.00
757.84	105.00
758.16	115.00
758.48	105.00
758.80	111.00
759.12	115.00
759.44	121.00
759.76	112.00
760.08	114.00
760.40	112.00
760.71	110.00
761.03	119.00
761.35	117.00
761.67	111.00
761.99	112.00
762.31	116.00
762.63	109.00
762.94	116.00
763.26	111.00
763.58	119.00
763.90	121.00
764.22	122.00
764.54	122.00
764.85	123.00
765.17	110.00
765.49	104.00
765.81	108.00
766.13	114.00
766.44	119.00
766.76	117.00
767.08	124.00
767.40	108.00
767.72	112.00
768.03	116.00
768.35	110.00
768.67	117.00
768.99	107.00
769.30	116.00
769.62	122.00
769.94	112.00
770.26	116.00
770.57	106.00
770.89	114.00
771.21	118.00
771.53	122.00
771.84	120.00
772.16	113.00
772.48	119.00
772.79	115.00
773.11	115.00
773.43	123.00
773.75	119.00
774.06	122.00
774.38	125.00
774.70	110.00
775.01	120.00
775.33	120.00
775.65	123.00
775.96	119.00
776.28	112.00
776.59	123.00
776.91	120.00
777.23	121.00
777.54	128.00
777.86	125.00
778.18	124.00
778.49	122.00
778.81	128.00
779.13	124.00
779.44	125.00
779.76	128.00
780.07	127.00
780.39	116.00
780.71	125.00
781.02	137.00
781.34	130.00
781.65	128.00
781.97	128.00
782.28	125.00
782.60	138.00
782.91	122.00
783.23	133.00
783.55	134.00
783.86	126.00
784.18	121.00
784.49	136.00
784.81	127.00
785.12	130.00
785.44	137.00
785.75	135.00
786.07	132.00
786.38	134.00
786.70	128.00
787.01	126.00
787.33	132.00
787.64	131.00
787.96	125.00
788.27	130.00
788.59	140.00
788.90	141.00
789.22	132.00
789.53	128.00
789.85	130.00
790.16	141.00
790.47	143.00
790.79	144.00
791.10	137.00
791.42	142.00
791.73	141.00
792.05	154.00
792.36	138.00
792.67	142.00
792.99	144.00
793.30	154.00
793.62	148.00
793.93	145.00
794.24	149.00
794.56	147.00
794.87	151.00
795.18	143.00
795.50	142.00
795.81	158.00
796.13	149.00
796.44	152.00
796.75	154.00
797.07	162.00
797.38	155.00
797.69	153.00
798.01	165.00
798.32	165.00
798.63	154.00
798.95	159.00
799.26	154.00
799.57	170.00
799.89	163.00
800.20	168.00
800.51	154.00
800.82	147.00
801.14	168.00
801.45	160.00
801.76	169.00
802.08	161.00
802.39	164.00
802.70	166.00
803.01	168.00
803.33	160.00
803.64	169.00
803.95	171.00
804.26	162.00
804.57	165.00
804.89	179.00
805.20	184.00
805.51	186.00
805.82	177.00
806.14	181.00
806.45	185.00
806.76	177.00
807.07	179.00
807.38	179.00
807.70	185.00
808.01	182.00
808.32	177.00
808.63	181.00
808.94	175.00
809.25	187.00
809.57	192.00
809.88	187.00
810.19	182.00
810.50	186.00
810.81	180.00
811.12	190.00
811.43	196.00
811.75	192.00
812.06	184.00
812.37	186.00
812.68	187.00
812.99	198.00
813.30	190.00
813.61	184.00
813.92	187.00
814.23	193.00
814.54	186.00
814.85	189.00
815.17	193.00
815.48	196.00
815.79	203.00
816.10	193.00
816.41	196.00
816.72	202.00
817.03	195.00
817.34	192.00
817.65	196.00
817.96	204.00
818.27	210.00
818.58	204.00
818.89	203.00
819.20	204.00
819.51	197.00
819.82	210.00
820.13	203.00
820.44	207.00
820.75	204.00
821.06	216.00
821.37	208.00
821.68	216.00
821.99	212.00
822.30	213.00
822.61	218.00
822.92	202.00
823.23	215.00
823.54	215.00
823.85	211.00
824.15	214.00
824.46	212.00
824.77	216.00
825.08	215.00
825.39	217.00
825.70	207.00
826.01	209.00
826.32	224.00
826.63	217.00
826.94	222.00
827.24	223.00
827.55	223.00
827.86	218.00
828.17	218.00
828.48	232.00
828.79	240.00
829.10	226.00
829.41	227.00
829.71	224.00
830.02	231.00
830.33	233.00
830.64	238.00
830.95	223.00
831.25	224.00
831.56	234.00
831.87	241.00
832.18	224.00
832.49	226.00
832.80	238.00
833.10	233.00
833.41	234.00
833.72	243.00
834.03	233.00
834.33	240.00
834.64	239.00
834.95	247.00
835.26	254.00
835.56	240.00
835.87	237.00
836.18	243.00
836.49	243.00
836.79	247.00
837.10	240.00
837.41	259.00
837.72	251.00
838.02	235.00
838.33	241.00
838.64	260.00
838.94	250.00
839.25	252.00
839.56	256.00
839.86	259.00
840.17	263.00
840.48	262.00
840.78	248.00
841.09	262.00
841.40	261.00
841.70	257.00
842.01	260.00
842.32	269.00
842.62	274.00
842.93	264.00
843.24	270.00
843.54	272.00
843.85	266.00
844.15	278.00
844.46	268.00
844.77	278.00
845.07	273.00
845.38	269.00
845.68	279.00
845.99	276.00
846.30	286.00
846.60	286.00
846.91	281.00
847.21	283.00
847.52	279.00
847.82	284.00
848.13	281.00
848.43	284.00
848.74	283.00
849.05	284.00
849.35	303.00
849.66	289.00
849.96	289.00
850.27	283.00
850.57	289.00
850.88	294.00
851.18	296.00
851.49	296.00
851.79	300.00
852.10	306.00
852.40	302.00
852.71	310.00
853.01	296.00
853.32	314.00
853.62	314.00
853.92	306.00
854.23	314.00
854.53	320.00
854.84	309.00
855.14	309.00
855.45	307.00
855.75	309.00
856.05	332.00
856.36	323.00
856.66	321.00
856.97	330.00
857.27	318.00
857.57	319.00
857.88	312.00
858.18	317.00
858.49	325.00
858.79	320.00
859.09	315.00
859.40	322.00
859.70	323.00
860.00	338.00
860.31	331.00
860.61	343.00
860.92	340.00
861.22	326.00
861.52	343.00
861.82	331.00
862.13	342.00
862.43	343.00
862.73	341.00
863.04	339.00
863.34	325.00
863.64	338.00
863.95	331.00
864.25	342.00
864.55	348.00
864.85	328.00
865.16	348.00
865.46	353.00
865.76	346.00
866.07	343.00
866.37	350.00
866.67	345.00
866.97	348.00
867.27	340.00
867.58	357.00
867.88	354.00
868.18	355.00
868.48	359.00
868.79	350.00
869.09	351.00
869.39	350.00
869.69	352.00
869.99	360.00
870.30	359.00
870.60	352.00
870.90	350.00
871.20	356.00
871.50	347.00
871.80	351.00
872.11	347.00
872.41	364.00
872.71	363.00
873.01	358.00
873.31	353.00
873.61	354.00
873.91	346.00
874.21	366.00
874.52	357.00
874.82	344.00
875.12	359.00
875.42	360.00
875.72	368.00
876.02	366.00
876.32	353.00
876.62	364.00
876.92	349.00
877.22	353.00
877.52	351.00
877.83	351.00
878.13	366.00
878.43	368.00
878.73	357.00
879.03	353.00
879.33	358.00
879.63	368.00
879.93	372.00
880.23	373.00
880.53	366.00
880.83	378.00
881.13	359.00
881.43	382.00
881.73	371.00
882.03	369.00
882.33	375.00
882.63	388.00
882.93	374.00
883.23	378.00
883.53	395.00
883.83	375.00
884.13	389.00
884.42	380.00
884.72	382.00
885.02	399.00
885.32	389.00
885.62	391.00
885.92	406.00
886.22	393.00
886.52	394.00
886.82	394.00
887.12	393.00
887.42	401.00
887.72	404.00
888.01	401.00
888.31	396.00
888.61	401.00
888.91	412.00
889.21	415.00
889.51	412.00
889.81	409.00
890.10	402.00
890.40	418.00
890.70	427.00
891.00	425.00
891.30	423.00
891.60	425.00
891.89	421.00
892.19	429.00
892.49	437.00
892.79	439.00
893.09	428.00
893.38	429.00
893.68	425.00
893.98	440.00
894.28	426.00
894.58	442.00
894.87	430.00
895.17	430.00
895.47	441.00
895.77	427.00
896.06	436.00
896.36	451.00
896.66	439.00
896.96	447.00
897.25	451.00
897.55	446.00
897.85	448.00
898.14	451.00
898.44	453.00
898.74	457.00
899.04	463.00
899.33	431.00
899.63	462.00
899.93	446.00
900.22	451.00
900.52	456.00
900.82	449.00
901.11	446.00
901.41	465.00
901.71	438.00
902.00	450.00
902.30	441.00
902.59	449.00
902.89	434.00
903.19	440.00
903.48	440.00
903.78	453.00
904.08	445.00
904.37	452.00
904.67	449.00
904.96	451.00
905.26	448.00
905.55	443.00
905.85	449.00
906.15	439.00
906.44	448.00
906.74	433.00
907.03	443.00
907.33	445.00
907.62	437.00
907.92	433.00
908.21	449.00
908.51	440.00
908.80	427.00
909.10	429.00
909.40	426.00
909.69	430.00
909.99	438.00
910.28	430.00
910.57	424.00
910.87	426.00
911.16	426.00
911.46	428.00
911.75	440.00
912.05	422.00
912.34	423.00
912.64	431.00
912.93	415.00
913.23	419.00
913.52	417.00
913.82	413.00
914.11	414.00
914.40	415.00
914.70	409.00
914.99	416.00
915.29	429.00
915.58	394.00
915.87	401.00
916.17	403.00
916.46	395.00
916.76	396.00
917.05	396.00
917.34	394.00
917.64	399.00
917.93	388.00
918.22	399.00
918.52	375.00
918.81	390.00
919.10	385.00
919.40	381.00
919.69	377.00
919.98	371.00
920.28	369.00
920.57	371.00
920.86	366.00
921.16	377.00
921.45	371.00
921.74	360.00
922.04	363.00
922.33	372.00
922.62	364.00
922.91	358.00
923.21	354.00
923.50	346.00
923.79	360.00
924.08	350.00
924.38	343.00
924.67	329.00
924.96	345.00
925.25	336.00
925.55	337.00
925.84	344.00
926.13	324.00
926.42	335.00
926.71	331.00
927.01	322.00
927.30	319.00
927.59	307.00
927.88	316.00
928.17	306.00
928.46	306.00
928.76	305.00
929.05	294.00
929.34	294.00
929.63	292.00
929.92	278.00
930.21	283.00
930.50	280.00
930.80	273.00
931.09	276.00
931.38	264.00
931.67	272.00
931.96	263.00
932.25	250.00
932.54	255.00
932.83	246.00
933.12	232.00
933.41	235.00
933.71	224.00
934.00	229.00
934.29	205.00
934.58	213.00
934.87	195.00
935.16	198.00
935.45	191.00
935.74	187.00
936.03	187.00
936.32	169.00
936.61	169.00
936.90	148.00
937.19	147.00
937.48	145.00
937.77	138.00
938.06	132.00
938.35	123.00
938.64	119.00
938.93	121.00
939.22	112.00
939.51	112.00
939.80	116.00
940.09	104.00
940.38	100.00
940.67	90.00
940.96	102.00
941.25	93.00
941.53	87.00
941.82	86.00
942.11	88.00
942.40	80.00
942.69	78.00
942.98	70.00
943.27	78.00
943.56	76.00
943.85	78.00
944.14	75.00
944.42	77.00
944.71	83.00
945.00	76.00
945.29	70.00
945.58	80.00
945.87	73.00
946.16	83.00
946.44	84.00
946.73	82.00
947.02	76.00
947.31	81.00
947.60	76.00
947.89	86.00
948.17	85.00
948.46	86.00
948.75	81.00
949.04	93.00
949.32	91.00
949.61	87.00
949.90	90.00
950.19	94.00
950.48	87.00
950.76	95.00
951.05	91.00
951.34	94.00
951.63	99.00
951.91	104.00
952.20	105.00
952.49	99.00
952.77	106.00
953.06	100.00
953.35	112.00
953.64	113.00
953.92	108.00
954.21	118.00
954.50	111.00
954.78	116.00
955.07	118.00
955.36	117.00
955.64	108.00
955.93	121.00
956.22	120.00
956.50	125.00
956.79	124.00
957.08	121.00
957.36	117.00
957.65	121.00
957.93	130.00
958.22	129.00
958.51	131.00
958.79	125.00
959.08	136.00
959.36	123.00
959.65	127.00
959.94	127.00
960.22	133.00
960.51	131.00
960.79	141.00
961.08	132.00
961.36	141.00
961.65	131.00
961.94	123.00
962.22	138.00
962.51	130.00
962.79	131.00
963.08	142.00
963.36	139.00
963.65	136.00
963.93	133.00
964.22	153.00
964.50	145.00
964.79	144.00
965.07	148.00
965.36	139.00
965.64	144.00
965.93	138.00
966.21	141.00
966.49	137.00
966.78	141.00
967.06	146.00
967.35	137.00
967.63	136.00
967.92	135.00
968.20	135.00
968.48	139.00
968.77	141.00
969.05	140.00
969.34	136.00
969.62	139.00
969.90	139.00
970.19	132.00
970.47	141.00
970.76	151.00
971.04	126.00
971.32	139.00
971.61	145.00
971.89	142.00
972.17	137.00
972.46	140.00
972.74	136.00
973.02	133.00
973.31	142.00
973.59	134.00
973.87	126.00
974.16	125.00
974.44	141.00
974.72	125.00
975.00	134.00
975.29	140.00
975.57	128.00
975.85	131.00
976.14	132.00
976.42	122.00
976.70	132.00
976.98	137.00
977.27	130.00
977.55	128.00
977.83	123.00
978.11	118.00
978.39	127.00
978.68	126.00
978.96	124.00
979.24	123.00
979.52	124.00
979.81	126.00
980.09	122.00
980.37	115.00
980.65	120.00
980.93	114.00
981.21	116.00
981.50	120.00
981.78	117.00
982.06	123.00
982.34	116.00
982.62	122.00
982.90	111.00
983.18	110.00
983.47	116.00
983.75	114.00
984.03	113.00
984.31	115.00
984.59	120.00
984.87	117.00
985.15	109.00
985.43	117.00
985.71	112.00
985.99	109.00
986.27	111.00
986.55	115.00
986.84	109.00
987.12	111.00
987.40	105.00
987.68	107.00
987.96	112.00
988.24	105.00
988.52	106.00
988.80	110.00
989.08	109.00
989.36	106.00
989.64	98.00
989.92	99.00
990.20	103.00
990.48	102.00
990.76	105.00
991.04	88.00
991.32	101.00
991.60	98.00
991.88	95.00
992.16	93.00
992.43	90.00
992.71	92.00
992.99	92.00
993.27	97.00
993.55	91.00
993.83	94.00
994.11	87.00
994.39	92.00
994.67	87.00
994.95	94.00
995.23	90.00
995.50	87.00
995.78	86.00
996.06	82.00
996.34	91.00
996.62	83.00
996.90	91.00
997.18	92.00
997.45	76.00
997.73	85.00
998.01	77.00
998.29	80.00
998.57	80.00
998.85	74.00
999.12	73.00
999.40	68.00
999.68	81.00
999.96	82.00
1000.24	80.00
1000.51	78.00
1000.79	76.00
1001.07	75.00
1001.35	77.00
1001.62	80.00
1001.90	81.00
1002.18	67.00
1002.46	61.00
1002.73	66.00
1003.01	65.00
1003.29	71.00
1003.56	73.00
1003.84	70.00
1004.12	69.00
1004.40	67.00
1004.67	65.00
1004.95	64.00
>>>>>End Processed Spectral Data<<<<<
